Temperature	-Seebeck	Independent Variable	Linear Fit of High Temperature	Independent Variable	Linear Fit of Low Temperature
K	\g(m)V/K	K	\g(m)V/K	K	\g(m)V/K
Temperature	-Seebeck	Temperature	Fit Curve of High Temperature	Temperature	Fit Curve of  Low Temperature
110	5.8431201416623E-5	50	-8.99843921140701E-5	50	9.20882973886651E-6
120	6.25320840226145E-5	50.6006006006006	-8.9271070522923E-5	50.6006006006006	9.69763977417547E-6
130	6.78396898074416E-5	51.2012012012012	-8.85577489317758E-5	51.2012012012012	1.01859880529748E-5
140	7.56838337635597E-5	51.8018018018018	-8.78444273406286E-5	51.8018018018018	1.06738745752646E-5
150	8.2337093649656E-5	52.4024024024024	-8.71311057494814E-5	52.4024024024024	1.11612993410448E-5
160	9.04722990768109E-5	53.003003003003	-8.64177841583343E-5	53.003003003003	1.16482623503153E-5
170	1.02193221671208E-4	53.6036036036036	-8.57044625671871E-5	53.6036036036036	1.21347636030763E-5
180	1.07025499355742E-4	54.2042042042042	-8.49911409760399E-5	54.2042042042042	1.26208030993276E-5
190	1.10244136861194E-4	54.8048048048048	-8.42778193848927E-5	54.8048048048048	1.31063808390694E-5
200	1.14449508216706E-4	55.4054054054054	-8.35644977937456E-5	55.4054054054054	1.35914968223015E-5
210	1.26371666381783E-4	56.006006006006	-8.28511762025984E-5	56.006006006006	1.40761510490241E-5
220	1.36663232632462E-4	56.6066066066066	-8.21378546114512E-5	56.6066066066066	1.45603435192371E-5
230	1.47059209255352E-4	57.2072072072072	-8.1424533020304E-5	57.2072072072072	1.50440742329404E-5
240	1.57001196897752E-4	57.8078078078078	-8.07112114291569E-5	57.8078078078078	1.55273431901341E-5
250	1.63553608071157E-4	58.4084084084084	-7.99978898380097E-5	58.4084084084084	1.60101503908183E-5
260	1.7125696814167E-4	59.009009009009	-7.92845682468625E-5	59.009009009009	1.64924958349928E-5
270	1.81312038323707E-4	59.6096096096096	-7.85712466557153E-5	59.6096096096096	1.69743795226578E-5
280	1.91093013894941E-4	60.2102102102102	-7.78579250645682E-5	60.2102102102102	1.74558014538131E-5
290	1.9917800233942E-4	60.8108108108108	-7.7144603473421E-5	60.8108108108108	1.79367616284589E-5
300	2.07094176357052E-4	61.4114114114114	-7.64312818822738E-5	61.4114114114114	1.8417260046595E-5
310	2.15321998701016E-4	62.012012012012	-7.57179602911266E-5	62.012012012012	1.88972967082215E-5
320	2.23276860143206E-4	62.6126126126126	-7.50046386999794E-5	62.6126126126126	1.93768716133385E-5
330	2.40684811931204E-4	63.2132132132132	-7.42913171088323E-5	63.2132132132132	1.98559847619458E-5
340	2.58904780285078E-4	63.8138138138138	-7.35779955176851E-5	63.8138138138138	2.03346361540435E-5
350	2.82337245415038E-4	64.4144144144144	-7.28646739265379E-5	64.4144144144144	2.08128257896316E-5
360	2.91597460481699E-4	65.015015015015	-7.21513523353907E-5	65.015015015015	2.12905536687102E-5
370	2.960987245616E-4	65.6156156156156	-7.14380307442436E-5	65.6156156156156	2.17678197912791E-5
380	2.94403520724049E-4	66.2162162162162	-7.07247091530964E-5	66.2162162162162	2.22446241573384E-5
390	3.06326290036378E-4	66.8168168168168	-7.00113875619492E-5	66.8168168168168	2.27209667668881E-5
400	3.20818986623977E-4	67.4174174174174	-6.9298065970802E-5	67.4174174174174	2.31968476199283E-5
410	3.34805244848418E-4	68.018018018018	-6.85847443796549E-5	68.018018018018	2.36722667164588E-5
420	3.50992957172816E-4	68.6186186186186	-6.78714227885077E-5	68.6186186186186	2.41472240564797E-5
430	3.61405841947955E-4	69.2192192192192	-6.71581011973605E-5	69.2192192192192	2.4621719639991E-5
440	3.77528189278486E-4	69.8198198198198	-6.64447796062133E-5	69.8198198198198	2.50957534669927E-5
450	3.81234671212355E-4	70.4204204204204	-6.57314580150662E-5	70.4204204204204	2.55693255374848E-5
460	3.95456977058327E-4	71.021021021021	-6.5018136423919E-5	71.021021021021	2.60424358514673E-5
470	4.20545438555609E-4	71.6216216216216	-6.43048148327718E-5	71.6216216216216	2.65150844089402E-5
480	4.3238964930596E-4	72.2222222222222	-6.35914932416246E-5	72.2222222222222	2.69872712099035E-5
490	4.30382045667471E-4	72.8228228228228	-6.28781716504775E-5	72.8228228228228	2.74589962543572E-5
500	4.26469293184449E-4	73.4234234234234	-6.21648500593303E-5	73.4234234234234	2.79302595423014E-5
510	4.45760600518698E-4	74.024024024024	-6.14515284681831E-5	74.024024024024	2.84010610737358E-5
520	4.5215508880048E-4	74.6246246246246	-6.07382068770359E-5	74.6246246246246	2.88714008486608E-5
530	4.70380352039321E-4	75.2252252252252	-6.00248852858887E-5	75.2252252252252	2.9341278867076E-5
540	4.83622504305873E-4	75.8258258258258	-5.93115636947416E-5	75.8258258258258	2.98106951289817E-5
550	4.99049120152049E-4	76.4264264264264	-5.85982421035944E-5	76.4264264264264	3.02796496343778E-5
560	5.08336519641405E-4	77.027027027027	-5.78849205124472E-5	77.027027027027	3.07481423832643E-5
570	5.26420091139594E-4	77.6276276276276	-5.71715989213E-5	77.6276276276276	3.12161733756412E-5
580	5.41228268923796E-4	78.2282282282282	-5.64582773301529E-5	78.2282282282282	3.16837426115085E-5
590	5.64679731822731E-4	78.8288288288288	-5.57449557390057E-5	78.8288288288288	3.21508500908662E-5
600	5.93894887821251E-4	79.4294294294294	-5.50316341478585E-5	79.4294294294294	3.26174958137143E-5
		80.03003003003	-5.43183125567113E-5	80.03003003003	3.30836797800528E-5
		80.6306306306306	-5.36049909655642E-5	80.6306306306306	3.35494019898816E-5
		81.2312312312312	-5.2891669374417E-5	81.2312312312312	3.40146624432009E-5
		81.8318318318318	-5.21783477832698E-5	81.8318318318318	3.44794611400106E-5
		82.4324324324324	-5.14650261921226E-5	82.4324324324324	3.49437980803107E-5
		83.033033033033	-5.07517046009755E-5	83.033033033033	3.54076732641011E-5
		83.6336336336336	-5.00383830098283E-5	83.6336336336336	3.5871086691382E-5
		84.2342342342342	-4.93250614186811E-5	84.2342342342342	3.63340383621533E-5
		84.8348348348348	-4.86117398275339E-5	84.8348348348348	3.67965282764149E-5
		85.4354354354354	-4.78984182363868E-5	85.4354354354354	3.7258556434167E-5
		86.036036036036	-4.71850966452396E-5	86.036036036036	3.77201228354095E-5
		86.6366366366366	-4.64717750540924E-5	86.6366366366366	3.81812274801423E-5
		87.2372372372372	-4.57584534629452E-5	87.2372372372372	3.86418703683656E-5
		87.8378378378378	-4.50451318717981E-5	87.8378378378378	3.91020515000793E-5
		88.4384384384384	-4.43318102806509E-5	88.4384384384384	3.95617708752833E-5
		89.039039039039	-4.36184886895037E-5	89.039039039039	4.00210284939778E-5
		89.6396396396396	-4.29051670983565E-5	89.6396396396396	4.04798243561626E-5
		90.2402402402402	-4.21918455072093E-5	90.2402402402402	4.09381584618379E-5
		90.8408408408408	-4.14785239160622E-5	90.8408408408408	4.13960308110035E-5
		91.4414414414414	-4.0765202324915E-5	91.4414414414414	4.18534414036596E-5
		92.042042042042	-4.00518807337678E-5	92.042042042042	4.2310390239806E-5
		92.6426426426426	-3.93385591426207E-5	92.6426426426426	4.27668773194429E-5
		93.2432432432432	-3.86252375514735E-5	93.2432432432432	4.32229026425701E-5
		93.8438438438438	-3.79119159603263E-5	93.8438438438438	4.36784662091877E-5
		94.4444444444444	-3.71985943691791E-5	94.4444444444444	4.41335680192958E-5
		95.045045045045	-3.64852727780319E-5	95.045045045045	4.45882080728942E-5
		95.6456456456456	-3.57719511868848E-5	95.6456456456456	4.50423863699831E-5
		96.2462462462462	-3.50586295957376E-5	96.2462462462462	4.54961029105623E-5
		96.8468468468468	-3.43453080045904E-5	96.8468468468468	4.59493576946319E-5
		97.4474474474474	-3.36319864134432E-5	97.4474474474474	4.6402150722192E-5
		98.048048048048	-3.29186648222961E-5	98.048048048048	4.68544819932424E-5
		98.6486486486486	-3.22053432311489E-5	98.6486486486486	4.73063515077832E-5
		99.2492492492493	-3.14920216400017E-5	99.2492492492493	4.77577592658145E-5
		99.8498498498498	-3.07787000488545E-5	99.8498498498498	4.82087052673361E-5
		100.45045045045	-3.00653784577074E-5	100.45045045045	4.86591895123481E-5
		101.051051051051	-2.93520568665602E-5	101.051051051051	4.91092120008505E-5
		101.651651651652	-2.8638735275413E-5	101.651651651652	4.95587727328434E-5
		102.252252252252	-2.79254136842658E-5	102.252252252252	5.00078717083266E-5
		102.852852852853	-2.72120920931187E-5	102.852852852853	5.04565089273002E-5
		103.453453453453	-2.64987705019715E-5	103.453453453453	5.09046843897642E-5
		104.054054054054	-2.57854489108243E-5	104.054054054054	5.13523980957186E-5
		104.654654654655	-2.50721273196771E-5	104.654654654655	5.17996500451634E-5
		105.255255255255	-2.43588057285299E-5	105.255255255255	5.22464402380986E-5
		105.855855855856	-2.36454841373828E-5	105.855855855856	5.26927686745242E-5
		106.456456456456	-2.29321625462356E-5	106.456456456456	5.31386353544402E-5
		107.057057057057	-2.22188409550884E-5	107.057057057057	5.35840402778466E-5
		107.657657657658	-2.15055193639412E-5	107.657657657658	5.40289834447435E-5
		108.258258258258	-2.07921977727941E-5	108.258258258258	5.44734648551306E-5
		108.858858858859	-2.00788761816469E-5	108.858858858859	5.49174845090082E-5
		109.459459459459	-1.93655545904997E-5	109.459459459459	5.53610424063762E-5
		110.06006006006	-1.86522329993525E-5	110.06006006006	5.58041385472346E-5
		110.660660660661	-1.79389114082054E-5	110.660660660661	5.62467729315834E-5
		111.261261261261	-1.72255898170582E-5	111.261261261261	5.66889455594226E-5
		111.861861861862	-1.6512268225911E-5	111.861861861862	5.71306564307522E-5
		112.462462462462	-1.57989466347638E-5	112.462462462462	5.75719055455722E-5
		113.063063063063	-1.50856250436167E-5	113.063063063063	5.80126929038826E-5
		113.663663663664	-1.43723034524695E-5	113.663663663664	5.84530185056834E-5
		114.264264264264	-1.36589818613223E-5	114.264264264264	5.88928823509746E-5
		114.864864864865	-1.29456602701751E-5	114.864864864865	5.93322844397561E-5
		115.465465465465	-1.2232338679028E-5	115.465465465465	5.97712247720281E-5
		116.066066066066	-1.15190170878808E-5	116.066066066066	6.02097033477905E-5
		116.666666666667	-1.08056954967336E-5	116.666666666667	6.06477201670433E-5
		117.267267267267	-1.00923739055864E-5	117.267267267267	6.10852752297864E-5
		117.867867867868	-9.37905231443927E-6	117.867867867868	6.152236853602E-5
		118.468468468468	-8.66573072329208E-6	118.468468468468	6.1959000085744E-5
		119.069069069069	-7.95240913214492E-6	119.069069069069	6.23951698789583E-5
		119.66966966967	-7.23908754099773E-6	119.66966966967	6.28308779156631E-5
		120.27027027027	-6.52576594985057E-6	120.27027027027	6.32661241958583E-5
		120.870870870871	-5.81244435870338E-6	120.870870870871	6.37009087195439E-5
		121.471471471471	-5.09912276755621E-6	121.471471471471	6.41352314867198E-5
		122.072072072072	-4.38580117640902E-6	122.072072072072	6.45690924973862E-5
		122.672672672673	-3.67247958526186E-6	122.672672672673	6.50024917515429E-5
		123.273273273273	-2.95915799411467E-6	123.273273273273	6.54354292491901E-5
		123.873873873874	-2.24583640296751E-6	123.873873873874	6.58679049903276E-5
		124.474474474474	-1.53251481182031E-6	124.474474474474	6.62999189749556E-5
		125.075075075075	-8.19193220673152E-7	125.075075075075	6.67314712030739E-5
		125.675675675676	-1.05871629525988E-7	125.675675675676	6.71625616746827E-5
		126.276276276276	6.07449961621202E-7	126.276276276276	6.75931903897819E-5
		126.876876876877	1.32077155276837E-6	126.876876876877	6.80233573483714E-5
		127.477477477477	2.03409314391556E-6	127.477477477477	6.84530625504513E-5
		128.078078078078	2.74741473506272E-6	128.078078078078	6.88823059960217E-5
		128.678678678679	3.46073632620991E-6	128.678678678679	6.93110876850824E-5
		129.279279279279	4.17405791735707E-6	129.279279279279	6.97394076176336E-5
		129.87987987988	4.88737950850424E-6	129.87987987988	7.01672657936751E-5
		130.48048048048	5.60070109965143E-6	130.48048048048	7.0594662213207E-5
		131.081081081081	6.31402269079862E-6	131.081081081081	7.10215968762294E-5
		131.681681681682	7.02734428194578E-6	131.681681681682	7.14480697827421E-5
		132.282282282282	7.74066587309294E-6	132.282282282282	7.18740809327452E-5
		132.882882882883	8.45398746424013E-6	132.882882882883	7.22996303262388E-5
		133.483483483484	9.16730905538732E-6	133.483483483484	7.27247179632227E-5
		134.084084084084	9.88063064653449E-6	134.084084084084	7.3149343843697E-5
		134.684684684685	1.05939522376816E-5	134.684684684685	7.35735079676617E-5
		135.285285285285	1.13072738288288E-5	135.285285285285	7.39972103351169E-5
		135.885885885886	1.2020595419976E-5	135.885885885886	7.44204509460624E-5
		136.486486486486	1.27339170111232E-5	136.486486486486	7.48432298004983E-5
		137.087087087087	1.34472386022704E-5	137.087087087087	7.52655468984246E-5
		137.687687687688	1.41605601934175E-5	137.687687687688	7.56874022398413E-5
		138.288288288288	1.48738817845647E-5	138.288288288288	7.61087958247484E-5
		138.888888888889	1.55872033757119E-5	138.888888888889	7.65297276531459E-5
		139.489489489489	1.6300524966859E-5	139.489489489489	7.69501977250338E-5
		140.09009009009	1.70138465580062E-5	140.09009009009	7.73702060404122E-5
		140.690690690691	1.77271681491534E-5	140.690690690691	7.77897525992809E-5
		141.291291291291	1.84404897403006E-5	141.291291291291	7.820883740164E-5
		141.891891891892	1.91538113314477E-5	141.891891891892	7.86274604474895E-5
		142.492492492492	1.98671329225949E-5	142.492492492492	7.90456217368294E-5
		143.093093093093	2.05804545137421E-5	143.093093093093	7.94633212696597E-5
		143.693693693694	2.12937761048893E-5	143.693693693694	7.98805590459804E-5
		144.294294294294	2.20070976960364E-5	144.294294294294	8.02973350657914E-5
		144.894894894895	2.27204192871836E-5	144.894894894895	8.0713649329093E-5
		145.495495495496	2.34337408783308E-5	145.495495495496	8.11295018358849E-5
		146.096096096096	2.4147062469478E-5	146.096096096096	8.15448925861671E-5
		146.696696696697	2.48603840606252E-5	146.696696696697	8.19598215799398E-5
		147.297297297297	2.55737056517723E-5	147.297297297297	8.23742888172029E-5
		147.897897897898	2.62870272429195E-5	147.897897897898	8.27882942979564E-5
		148.498498498499	2.70003488340667E-5	148.498498498499	8.32018380222003E-5
		149.099099099099	2.77136704252139E-5	149.099099099099	8.36149199899346E-5
		149.6996996997	2.84269920163611E-5	149.6996996997	8.40275402011592E-5
		150.3003003003	2.91403136075082E-5	150.3003003003	8.44396986558743E-5
		150.900900900901	2.98536351986554E-5	150.900900900901	8.48513953540798E-5
		151.501501501502	3.05669567898026E-5	151.501501501502	8.52626302957757E-5
		152.102102102102	3.12802783809498E-5	152.102102102102	8.56734034809619E-5
		152.702702702703	3.1993599972097E-5	152.702702702703	8.60837149096386E-5
		153.303303303303	3.27069215632441E-5	153.303303303303	8.64935645818057E-5
		153.903903903904	3.34202431543913E-5	153.903903903904	8.69029524974632E-5
		154.504504504505	3.41335647455384E-5	154.504504504505	8.7311878656611E-5
		155.105105105105	3.48468863366857E-5	155.105105105105	8.77203430592493E-5
		155.705705705706	3.55602079278328E-5	155.705705705706	8.8128345705378E-5
		156.306306306306	3.627352951898E-5	156.306306306306	8.8535886594997E-5
		156.906906906907	3.69868511101271E-5	156.906906906907	8.89429657281065E-5
		157.507507507508	3.77001727012743E-5	157.507507507508	8.93495831047063E-5
		158.108108108108	3.84134942924215E-5	158.108108108108	8.97557387247966E-5
		158.708708708709	3.91268158835687E-5	158.708708708709	9.01614325883773E-5
		159.309309309309	3.98401374747159E-5	159.309309309309	9.05666646954483E-5
		159.90990990991	4.0553459065863E-5	159.90990990991	9.09714350460097E-5
		160.510510510511	4.12667806570102E-5	160.510510510511	9.13757436400616E-5
		161.111111111111	4.19801022481574E-5	161.111111111111	9.17795904776038E-5
		161.711711711712	4.26934238393046E-5	161.711711711712	9.21829755586365E-5
		162.312312312312	4.34067454304518E-5	162.312312312312	9.25858988831595E-5
		162.912912912913	4.41200670215989E-5	162.912912912913	9.2988360451173E-5
		163.513513513514	4.48333886127461E-5	163.513513513514	9.33903602626768E-5
		164.114114114114	4.55467102038933E-5	164.114114114114	9.37918983176711E-5
		164.714714714715	4.62600317950405E-5	164.714714714715	9.41929746161557E-5
		165.315315315315	4.69733533861876E-5	165.315315315315	9.45935891581307E-5
		165.915915915916	4.76866749773348E-5	165.915915915916	9.49937419435962E-5
		166.516516516517	4.8399996568482E-5	166.516516516517	9.5393432972552E-5
		167.117117117117	4.91133181596292E-5	167.117117117117	9.57926622449982E-5
		167.717717717718	4.98266397507764E-5	167.717717717718	9.61914297609349E-5
		168.318318318318	5.05399613419235E-5	168.318318318318	9.65897355203619E-5
		168.918918918919	5.12532829330707E-5	168.918918918919	9.69875795232793E-5
		169.51951951952	5.19666045242179E-5	169.51951951952	9.73849617696871E-5
		170.12012012012	5.26799261153651E-5	170.12012012012	9.77818822595854E-5
		170.720720720721	5.33932477065122E-5	170.720720720721	9.8178340992974E-5
		171.321321321321	5.41065692976594E-5	171.321321321321	9.8574337969853E-5
		171.921921921922	5.48198908888066E-5	171.921921921922	9.89698731902224E-5
		172.522522522523	5.55332124799537E-5	172.522522522523	9.93649466540822E-5
		173.123123123123	5.62465340711009E-5	173.123123123123	9.97595583614324E-5
		173.723723723724	5.69598556622481E-5	173.723723723724	1.00153708312273E-4
		174.324324324324	5.76731772533953E-5	174.324324324324	1.00547396506604E-4
		174.924924924925	5.83864988445424E-5	174.924924924925	1.00940622944425E-4
		175.525525525526	5.90998204356896E-5	175.525525525526	1.01333387625737E-4
		176.126126126126	5.98131420268368E-5	176.126126126126	1.01725690550539E-4
		176.726726726727	6.0526463617984E-5	176.726726726727	1.02117531718832E-4
		177.327327327327	6.12397852091312E-5	177.327327327327	1.02508911130615E-4
		177.927927927928	6.19531068002783E-5	177.927927927928	1.02899828785888E-4
		178.528528528529	6.26664283914255E-5	178.528528528529	1.03290284684652E-4
		179.129129129129	6.33797499825727E-5	179.129129129129	1.03680278826906E-4
		179.72972972973	6.40930715737199E-5	179.72972972973	1.04069811212651E-4
		180.33033033033	6.4806393164867E-5	180.33033033033	1.04458881841886E-4
		180.930930930931	6.55197147560142E-5	180.930930930931	1.04847490714611E-4
		181.531531531532	6.62330363471614E-5	181.531531531532	1.05235637830827E-4
		182.132132132132	6.69463579383086E-5	182.132132132132	1.05623323190533E-4
		182.732732732733	6.76596795294557E-5	182.732732732733	1.0601054679373E-4
		183.333333333333	6.83730011206029E-5	183.333333333333	1.06397308640417E-4
		183.933933933934	6.90863227117501E-5	183.933933933934	1.06783608730594E-4
		184.534534534535	6.97996443028973E-5	184.534534534535	1.07169447064262E-4
		185.135135135135	7.05129658940444E-5	185.135135135135	1.0755482364142E-4
		185.735735735736	7.12262874851916E-5	185.735735735736	1.07939738462069E-4
		186.336336336336	7.19396090763388E-5	186.336336336336	1.08324191526208E-4
		186.936936936937	7.2652930667486E-5	186.936936936937	1.08708182833837E-4
		187.537537537538	7.33662522586331E-5	187.537537537538	1.09091712384957E-4
		188.138138138138	7.40795738497803E-5	188.138138138138	1.09474780179567E-4
		188.738738738739	7.47928954409275E-5	188.738738738739	1.09857386217668E-4
		189.339339339339	7.55062170320747E-5	189.339339339339	1.10239530499259E-4
		189.93993993994	7.62195386232218E-5	189.93993993994	1.1062121302434E-4
		190.540540540541	7.6932860214369E-5	190.540540540541	1.11002433792912E-4
		191.141141141141	7.76461818055162E-5	191.141141141141	1.11383192804974E-4
		191.741741741742	7.83595033966634E-5	191.741741741742	1.11763490060527E-4
		192.342342342342	7.90728249878105E-5	192.342342342342	1.1214332555957E-4
		192.942942942943	7.97861465789577E-5	192.942942942943	1.12522699302103E-4
		193.543543543544	8.04994681701049E-5	193.543543543544	1.12901611288127E-4
		194.144144144144	8.12127897612521E-5	194.144144144144	1.13280061517641E-4
		194.744744744745	8.19261113523992E-5	194.744744744745	1.13658049990645E-4
